"Distance [mm]"	"nb []"
0	2.87519848594086E-005
0.11299733655802	0.0117502791134542
0.22599467311604	0.0234785053803141
0.33899200967406	0.0352182024156967
0.45198934623208	0.0467246983294985
0.564986682790101	0.05819140395919
0.677984019348121	0.0695878079708736
0.790981355906141	0.0806173301332434
0.903978692464161	0.0915931639810204
1.01697602902218	0.104040798513695
1.1299733655802	0.114020323248962
1.24297070213822	0.1239651060809
1.35596803869624	0.133869825112584
1.46896537525426	0.143729054346426
1.58196271181228	0.153537288208172
1.6949600483703	0.163288966323264
1.80795738492832	0.172978498532281
1.92095472148634	0.182600290132073
2.03395205804436	0.190937871867809
2.14694939460238	0.199095950759339
2.2599467311604	0.207340667002871
2.37294406771842	0.215668538824729
2.48594140427644	0.223664728078303
2.59893874083446	0.231356387238891
2.71193607739248	0.238794838703145
2.8249334139505	0.245973520968282
2.93793075050852	0.252685426816226
3.05092808706654	0.259074356838725
3.16392542362456	0.265384974400062
3.27692276018258	0.27161555357013
3.3899200967406	0.277764508155214
3.50291743329862	0.283830391968467
3.61591476985664	0.289811899029697
3.72891210641466	0.295707863694469
3.84190944297268	0.301341287856428
3.9549067795307	0.306111107621392
4.06790411608872	0.310838253787111
4.18090145264674	0.31552208625544
4.29389878920476	0.320162082979062
4.40689612576278	0.324757839598138
4.5198934623208	0.329309069014598
4.63289079887882	0.333815600904279
4.74588813543684	0.338277381167229
4.85888547199486	0.342041170851005
4.97188280855289	0.34567039394647
5.0848801451109	0.349276018878272
5.19787748166893	0.352858270095333
5.31087481822695	0.356417458134065
5.42387215478496	0.359953979142179
5.53686949134299	0.363468314356597
5.649866827901	0.366961029535707
5.76286416445903	0.370005016106315
5.87586150101705	0.372666904145445
5.98885883757506	0.375322394339447
6.10185617413309	0.377969033789594
6.21485351069111	0.380604436511136
6.32785084724912	0.383226284392093
6.44084818380715	0.385832328114695
6.55384552036517	0.38842038803912
6.66684285692319	0.390941818268216
6.77984019348121	0.393254002618945
6.89283753003923	0.395523346237093
7.00583486659725	0.39775048336551
7.11883220315527	0.399936110419934
7.23182953971329	0.402080985550084
7.34482687627131	0.404185928168408
7.45782421282933	0.406251818446677
7.57082154938735	0.408279596780643
7.68381888594537	0.409885705967621
7.79681622250339	0.411446349718883
7.90981355906141	0.413011309196688
8.02281089561943	0.414579105480727
8.13580823217745	0.416148303428776
8.24880556873547	0.417717512263581
8.36180290529349	0.419285386134319
8.47480024185151	0.420850624652393
8.58779757840953	0.422319499163872
8.70079491496755	0.423698540512336
8.81379225152557	0.425055747511051
8.92678958808359	0.426391674007291
9.03978692464161	0.427706916097884
9.15278426119963	0.429002111791216
9.26578159775765	0.430277940646356
9.37877893431567	0.431535123389438
9.49177627087369	0.432694208970593
9.60477360743171	0.433601433438329
9.71777094398973	0.434519599953446
9.83076828054775	0.435447660023114
9.94376561710577	0.43638459533047
10.0567629536638	0.437329418172035
10.1697602902218	0.43828117187665
10.2827576267798	0.439238931205766
10.3957549633379	0.440201802734939
10.5087522998959	0.441054699651868
10.6217496364539	0.441887963863079
10.7347469730119	0.4427116688809
10.8477443095699	0.443526291927395
10.960741646128	0.444332340817662
11.073738982686	0.44513035369545
11.186736319244	0.44592089875142
11.299733655802	0.446704573924177
11.41273099236	0.447331440137571
11.5257283289181	0.447869656684902
11.6387256654761	0.448425654759583
11.7517230020341	0.448998097783708
11.8647203385921	0.449585668419988
11.9777176751501	0.450187069158318
12.0907150117082	0.450801022889177
12.2037123482662	0.451426273463655
12.3167096848242	0.451995563349198
12.4297070213822	0.452402226341099
12.5427043579402	0.452826996095513
12.6557016944983	0.453271076712519
12.7686990310563	0.453735658663361
12.8816963676143	0.454221918421688
12.9946937041723	0.454731018098729
13.1076910407303	0.455264105082509
13.2206883772884	0.455822311681213
13.3336857138464	0.456173178384655
13.4466830504044	0.456520046125143
13.5596803869624	0.4568743245558
13.6726777235204	0.457235248376374
13.7856750600785	0.45760207395877
13.8986723966365	0.457974079642524
14.0116697331945	0.458350566016691
14.1246670697525	0.458730856188065
14.2376644063105	0.45900471206885
14.3506617428686	0.459229584134565
14.4636590794266	0.459475198035898
14.5766564159846	0.459742614461541
14.6896537525426	0.460032882404886
14.8026510891006	0.460347038863273
14.9156484256587	0.46068610853955
15.0286457622167	0.46105110354602
15.1416430987747	0.461376493684297
15.2546404353327	0.461565149155419
15.3676377718907	0.461764307880026
15.4806351084488	0.461973311821686
15.5936324450068	0.462191521144341
15.7066297815648	0.462418314478858
15.8196271181228	0.462653089177692
15.9326244546808	0.462895261557587
16.0456217912389	0.46314426713021
16.1586191277969	0.463244971912008
16.2716164643549	0.46336332959196
16.3846138009129	0.463503756918512
16.4976111374709	0.463667235732964
16.610608474029	0.463854736147957
16.723605810587	0.46406721627485
16.836603147145	0.464305621953484
16.949600483703	0.464570886484392
17.062597820261	0.46472716724845
17.1755951568191	0.46482672253936
17.2885924933771	0.464937944563054
17.4015898299351	0.465060247474637
17.5145871664931	0.465193061749051
17.6275845030511	0.465335834425651
17.7405818396092	0.46548802934187
17.8535791761672	0.46564912735586
17.9665765127252	0.46576813070952
18.0795738492832	0.465802863455983
18.1925711858412	0.465859564975949
18.3055685223993	0.465939174096887
18.4185658589573	0.466042618172683
18.5315631955153	0.466170812828579
18.6445605320733	0.466324661708454
18.7575578686313	0.466505056224517
18.8705552051894	0.466711187476548
18.9835525417474	0.466765340144618
19.0965498783054	0.466824497683487
19.2095472148634	0.46688784555636
19.3225445514214	0.466954584172206
19.4355418879795	0.467023929224831
19.5485392245375	0.467095112022125
19.6615365610955	0.46716737980535
19.7745338976535	0.467239996058349
19.8875312342115	0.467257632418959
20.0005285707696	0.467266998447288
20.1135259073276	0.467297186645906
20.2265232438856	0.467349273097877
20.3395205804436	0.467424321553383
20.4525179170016	0.467523383051422
20.5655152535597	0.467647495544818
20.6785125901177	0.46779768352868
20.7915099266757	0.467913044452218
20.9045072632337	0.467930546001907
21.0175045997917	0.467950044642678
21.1305019363498	0.467970970614684
21.2434992729078	0.46799277566542
21.3564966094658	0.468014933307564
21.4694939460238	0.468036939063895
21.5824912825818	0.468058310699186
21.6954886191399	0.468079525593046
21.8084859556979	0.468125586697037
21.9214832922559	0.468177762757894
22.0344806288139	0.468235603801633
22.1474779653719	0.468298670888422
22.26047530193	0.468366536355598
22.373472638488	0.468438784053042
22.486469975046	0.468515009570827
22.599467311604	0.468594820459022
22.712464648162	0.468601877651088
22.8254619847201	0.468589748805103
22.9384593212781	0.468590498522509
23.0514566578361	0.468605104553027
23.1644539943941	0.46863454402069
23.2774513309521	0.468679793034347
23.3904486675102	0.46874182629607
23.5034460040682	0.468821616707588
23.6164433406262	0.468875705824541
23.7294406771842	0.468870428143501
23.8424380137422	0.468868741169425
23.9554353503003	0.468869683550442
24.0684326868583	0.468872307651953
24.1814300234163	0.468875679984868
24.2944273599743	0.468878881624721
24.4074246965323	0.46888100862152
24.5204220330904	0.468875154472539
24.6334193696484	0.468803513525989
24.7464167062064	0.468758524743206
24.8594140427644	0.468741273045254
24.9724113793224	0.468752823581352
25.0854087158805	0.468794221382284
25.1984060524385	0.468866491020788
25.3114033889965	0.468970636279025
25.4244007255545	0.469107639823228
25.5373980621125	0.469159898725702
25.6503953986706	0.469173643275946
25.7633927352286	0.469183415756105
25.8763900717866	0.469188523091707
25.9893874083446	0.469188292876472
26.1023847449026	0.469182073638922
26.2153820814607	0.469169235096866
26.3283794180187	0.469149168399694
26.4413767545767	0.469103120585608
26.5543740911347	0.469045002927715
26.6673714276927	0.469008582770492
26.7803687642508	0.46899492073938
26.8933661008088	0.469005064017046
27.0063634373668	0.469040045984079
27.1193607739248	0.469100885863554
27.2323581104828	0.469188588369599
27.3453554470409	0.469288030055934
27.4583527835989	0.46925908499984
27.5713501201569	0.469231343712274
27.6843474567149	0.469204248975334
27.7973447932729	0.46917726449994
27.910342129831	0.469149875182755
28.023339466389	0.469121587350548
28.136336802947	0.469091928991902
28.249334139505	0.469060449976175
28.362331476063	0.469045278746669
28.4753288126211	0.469049603673395
28.5883261491791	0.469070296573424
28.7013234857371	0.469107445647706
28.8143208222951	0.469161148228926
28.9273181588531	0.469231510733704
29.0403154954112	0.469318648607355
29.1533128319692	0.469422686261225
29.2663101685272	0.469433893093244
29.3793075050852	0.469330672002731
29.4923048416432	0.469244137505913
29.6053021782013	0.46917425380654
29.7182995147593	0.469120994528779
29.8312968513173	0.469084342714294
29.9442941878753	0.469064290811736
30.0572915244333	0.469060840658623
30.1702888609914	0.469067687459661
30.2832861975494	0.469045454009065
30.3962835341074	0.469032345715146
30.5092808706654	0.469028664451796
30.6222782072234	0.469034729044796
30.7352755437815	0.469050875102735
30.8482728803395	0.469077454836995
30.9612702168975	0.469114836870883
31.0742675534555	0.469163406037975
31.1872648900135	0.469109881991993
31.3002622265716	0.469047545089394
31.4132595631296	0.469002901079823
31.5262568996876	0.468974970246686
31.6392542362456	0.468962771067525
31.7522515728037	0.468965320610553
31.8652489093617	0.468981634929241
31.9782462459197	0.469010729454817
32.0912435824777	0.468997776483026
32.2042409190357	0.468933721369304
32.3172382555938	0.468873843547191
32.4302355921518	0.468818528978842
32.5432329287098	0.468768175175468
32.6562302652678	0.468723190979604
32.7692276018258	0.468683996339739
32.8822249383839	0.468651022077385
32.9952222749419	0.468628292997333
33.1082196114999	0.468626440128637
33.2212169480579	0.46862420793772
33.3342142846159	0.468622046149187
33.4472116211739	0.468620426280899
33.560208957732	0.468619841427282
33.67320629429	0.468620806029829
33.786203630848	0.468623855634884
33.899200967406	0.46862954663881
34.0121983039641	0.468510694959957
34.1251956405221	0.468392556945234
34.2381929770801	0.468300389270867
34.3511903136381	0.468233182541568
34.4641876501961	0.468189914021995
34.5771849867542	0.468169548000986
34.6901823233122	0.468171036159214
34.8031796598702	0.468193317940133
34.9161769964282	0.468189443808093
35.0291743329862	0.468147977131914
35.1421716695443	0.468107943170259
35.2551690061023	0.468070055381679
35.3681663426603	0.468035042586316
35.4811636792183	0.468003648662508
35.5941610157763	0.467976632233724
35.7071583523344	0.467954766345949
35.8201556888924	0.467907124769738
35.9331530254504	0.467746934661113
36.0461503620084	0.46761420351547
36.1591476985664	0.467508076908335
36.2721450351245	0.46742768807067
36.3851423716825	0.467372158127415
36.4981397082405	0.467340596338479
36.6111370447985	0.467332100342149
36.7241343813565	0.467345756400825
36.8371317179146	0.467247524144059
36.9501290544726	0.467139906919481
37.0631263910306	0.467042395006155
37.1761237275886	0.46695547603526
37.2891210641466	0.46687965336628
37.4021184007047	0.466815445872117
37.5151157372627	0.466763387713804
37.6281130738207	0.466724028104925
37.7411104103787	0.466593641743015
37.8541077469367	0.466401590917581
37.9671050834948	0.466236486092004
38.0801024200528	0.466097436406493
38.1930997566108	0.465983538624137
38.3060970931688	0.465893877382445
38.4190944297268	0.465827525447351
38.5320917662849	0.465783543969598
38.6450891028429	0.46572591431588
38.7580864394009	0.465560393114194
38.8710837759589	0.465403678985921
38.9840811125169	0.465256283271941
39.097078449075	0.46511873437484
39.210075785633	0.464991577541583
39.323073122191	0.464875374635162
39.436070458749	0.464770703895294
39.549067795307	0.464678159688272
39.6620651318651	0.464420974646283
39.7750624684231	0.464170879329022
39.8880598049811	0.463947086552791
40.0010571415391	0.46374865685209
40.1140544780971	0.46357463840688
40.2270518146552	0.463424067311368
40.3400491512132	0.463295967845196
40.4530464877712	0.463189352746948
40.5660438243292	0.463005608187052
40.6790411608872	0.46276022503814
40.7920384974453	0.462522081019331
40.9050358340033	0.462291750440129
41.0180331705613	0.462069826634591
41.1310305071193	0.461856921724297
41.2440278436773	0.461653666369324
41.3570251802354	0.461460709507318
41.4700225167934	0.461223596796934
41.5830198533514	0.460846816886429
41.6960171899094	0.460496405015222
41.8090145264674	0.460171354267808
41.9220118630255	0.459870645014744
42.0350091995835	0.459593245207894
42.1480065361415	0.459338110678095
42.2610038726995	0.45910418543518
42.3740012092575	0.45889040197024
42.4869985458156	0.458520974668718
42.5999958823736	0.458142847416983
42.7129932189316	0.457768898586705
42.8259905554896	0.457399818404407
42.9389878920476	0.457036319466201
43.0519852286057	0.456679136461498
43.1649825651637	0.456329025883124
43.2779799017217	0.455986765723911
43.3909772382797	0.455511431697696
43.5039745748377	0.454967340749227
43.6169719113958	0.454447752083765
43.7299692479538	0.453951522086096
43.8429665845118	0.453477492180856
43.9559639210698	0.453024489192046
44.0689612576278	0.45259132570669
44.1819585941859	0.4521768004425
44.2949559307439	0.451709485372162
44.4079532673019	0.451079046451632
44.5209506038599	0.450459441064997
44.6339479404179	0.449851918084581
44.746945276976	0.449257747552793
44.859942613534	0.448678220126678
44.972939950092	0.448114646509001
45.08593728665	0.447568356866091
45.198934623208	0.447040700232652
45.3119319597661	0.44626959226254
45.4249292963241	0.445482151625591
45.5379266328821	0.444687478215581
45.6509239694401	0.443884988031566
45.7639213059981	0.443074126995765
45.8769186425562	0.442254371244213
45.9899159791142	0.441425227400109
46.1029133156722	0.440586232829747
46.2159106522302	0.439664310248679
46.3289079887882	0.438703569229548
46.4419053253463	0.437748496987745
46.5549026619043	0.436800009384069
46.6678999984623	0.435859053901125
46.7808973350203	0.434926609249068
46.8938946715783	0.434003684952614
47.0068920081364	0.433091320919495
47.1198893446944	0.432082674271904
47.2328866812524	0.430833388611101
47.3458840178104	0.429565685449654
47.4588813543684	0.428278829938948
47.5718786909265	0.426972128236567
47.6848760274845	0.425644927898169
47.7978733640425	0.424296618246685
47.9108707006005	0.422926630718692
48.0238680371585	0.421534439187814
48.1368653737166	0.419971983989942
48.2498627102746	0.418405120380125
48.3628600468326	0.416836180316899
48.4758573833906	0.415266490180108
48.5888547199486	0.413697421589672
48.7018520565067	0.412130390855754
48.8148493930647	0.41056685840337
48.9278467296227	0.409008328171642
49.0408440661807	0.407143743885592
49.1538414027387	0.405094933764998
49.2668387392968	0.403007416689269
49.3798360758548	0.400880285515975
49.4928334124128	0.398712693642728
49.6058307489708	0.396503855525174
49.7188280855288	0.394253047162923
49.8318254220869	0.391959606553206
49.9448227586449	0.389548078717757
50.0578200952029	0.386967777104282
50.1708174317609	0.38436867569436
50.2838147683189	0.381752922811382
50.396812104877	0.379122736818952
50.509809441435	0.376480405254151
50.622806777993	0.373828283922962
50.735804114551	0.371168795958175
50.848801451109	0.368485062156103
50.9617987876671	0.365001256572813
51.0747961242251	0.361496064258309
51.1877934607831	0.357968886227485
51.3007907973411	0.354419207767556
51.4137881338991	0.350846599023821
51.5267854704572	0.34725071553988
51.6397828070152	0.343631298752049
51.7527801435732	0.33998817643775
51.8657774801312	0.335775869159222
51.9787748166892	0.331289019480842
52.0917721532473	0.326757237275876
52.2047694898053	0.322180641376827
52.3177668263633	0.317559467227763
52.4307641629213	0.312894067399439
52.5437614994794	0.308184912042385
52.6567588360374	0.303432589277705
52.7697561725954	0.298263736038403
52.8827535091534	0.292405782683393
52.9957508457114	0.286461692040526
53.1087481822695	0.280432568271844
53.2217455188275	0.274319656071868
53.3347428553855	0.268124340570279
53.4477401919435	0.26184814716382
53.5607375285015	0.255492741277432
53.6737348650596	0.249034795175193
53.7867322016176	0.241967467812877
53.8997295381756	0.23464161124252
54.0127268747336	0.227063757260733
54.1257242112916	0.219240642846617
54.2387215478497	0.210990131810642
54.3517188844077	0.202708487352912
54.4647162209657	0.194509524436813
54.5777135575237	0.186396711761203
54.6907108940817	0.177210771659663
54.8037082306397	0.167549627578756
54.9167055671978	0.157823449712089
55.0297029037558	0.148037820858441
55.1427002403138	0.138198301013502
55.2556975768718	0.128310400254971
55.3686949134298	0.118379551863222
55.4816922499879	0.108411085691951
55.5946895865459	0.0964083390441311
55.7076869231039	0.0854319642063008
55.8206842596619	0.0744133606746618
55.93368159622	0.0632373125350265
56.046678932778	0.0517727644825831
56.159676269336	0.040210114562073
56.272673605894	0.0285601887738412
56.385670942452	0.0168756598373742
56.4986682790101	0.00516876244220086
56.6116656155681	-0.00647671679159079
56.7246629521261	-0.0182311924599243
56.8376602886841	-0.0301276570417296
56.9506576252421	-0.0417039362437915
57.0636549618002	-0.0529978044060624
57.1766522983582	-0.064279504454236
57.2896496349162	-0.0755534222927147
57.4026469714742	-0.0868240378100905
57.5156443080322	-0.098095926812381
57.6286416445902	-0.109559075212055
57.7416389811483	-0.119518482542825
57.8546363177063	-0.12944301319087
57.9676336542643	-0.139326756083265
58.0806309908223	-0.149163738274613
58.1936283273803	-0.158947947781208
58.3066256639384	-0.168673356644124
58.4196230004964	-0.178333944208954
58.5326203370544	-0.187343506846172
58.6456176736124	-0.195460632820381
58.7586150101705	-0.203666189433474
58.8716123467285	-0.211956713353867
58.9846096832865	-0.220163513782322
59.0976070198445	-0.227959901923498
59.2106043564025	-0.235509108856334
59.3236016929606	-0.242804419597163
59.4365990295186	-0.24981238236656
59.5495963660766	-0.256236379203139
59.6625937026346	-0.262582814802057
59.7755910391926	-0.268849894632716
59.8885883757507	-0.275035963734091
60.0015857123087	-0.281139507018346
60.1145830488667	-0.287159149503816
60.2275803854247	-0.293093656477308
60.3405777219827	-0.298941933585738
60.4535750585408	-0.303990779657584
60.5665723950988	-0.308737478206826
60.6795697316568	-0.313441157925704
60.7925670682148	-0.318101249004824
60.9055644047728	-0.322717299564637
61.0185617413309	-0.32728897525511
61.1315590778889	-0.331816058793097
61.2445564144469	-0.336298449437703
61.3575537510049	-0.340418113992977
61.4705510875629	-0.344058098909256
61.583548424121	-0.347674549467951
61.696545760679	-0.351267648666911
61.809543097237	-0.35483766575059
61.922540433795	-0.358384955756259
62.035537770353	-0.361909959014219
62.1485351069111	-0.365413200602265
62.2615324434691	-0.368821893373098
62.3745297800271	-0.371486498888379
62.4875271165851	-0.374145985034866
62.6005244531431	-0.37679787481976
62.7135217897012	-0.379439757645294
62.8265191262592	-0.382069290281939
62.9395164628172	-0.384684197804442
63.0525137993752	-0.387282274490353
63.1655111359332	-0.389861384680696
63.2785084724913	-0.392244691077383
63.3915058090493	-0.394534414830375
63.5045031456073	-0.396781456157197
63.6175004821653	-0.398986483113561
63.7304978187233	-0.401150225792982
63.8434951552814	-0.403273475870186
63.9564924918394	-0.405357086112232
64.0694898283974	-0.407401969857551
64.1824871649554	-0.409212194994725
64.2954845015134	-0.410770647335784
64.4084818380715	-0.412333844401522
